current vp 0
1.50564 0 0.467429
1.50268 29.1305 0.468915
1.49975 57.9943 0.470394
1.49685 86.5943 0.471866
1.49398 114.934 0.473331
1.49115 143.015 0.474788
1.48835 170.841 0.476238
1.48558 198.416 0.477681
1.48284 225.741 0.479116
1.48013 252.819 0.480543
1.47745 279.653 0.481963
1.4748 306.247 0.483376
1.47218 332.602 0.48478
1.46959 358.721 0.486178
1.46703 384.607 0.487567
1.4645 410.262 0.488949
1.46199 435.69 0.490324
1.45952 460.892 0.49169
1.45707 485.871 0.493049
1.45464 510.63 0.4944
1.45225 535.171 0.495744
1.44988 559.496 0.497079
1.44754 583.608 0.498407
1.44522 607.51 0.499727
1.44293 631.203 0.501039
1.44067 654.689 0.502344
1.43843 677.972 0.50364
1.43622 701.054 0.504929
1.43403 723.936 0.50621
1.43186 746.621 0.507483
1.42972 769.112 0.508748
0.554763 791.409 0.510005
current vp 0
1.50564 0 0.467429
1.50268 29.1305 0.468915
1.49975 57.9943 0.470394
1.49685 86.5943 0.471866
1.49398 114.934 0.473331
1.49115 143.015 0.474788
1.48835 170.841 0.476238
1.48558 198.416 0.477681
1.48284 225.741 0.479116
1.48013 252.819 0.480543
1.47745 279.653 0.481963
1.4748 306.247 0.483376
1.47218 332.602 0.48478
1.46959 358.721 0.486178
1.46703 384.607 0.487567
1.4645 410.262 0.488949
1.46199 435.69 0.490324
1.45952 460.892 0.49169
1.45707 485.871 0.493049
1.45464 510.63 0.4944
1.45225 535.171 0.495744
1.44988 559.496 0.497079
1.44754 583.608 0.498407
1.44522 607.51 0.499727
1.44293 631.203 0.501039
1.44067 654.689 0.502344
1.43843 677.972 0.50364
1.43622 701.054 0.504929
1.43403 723.936 0.50621
1.43186 746.621 0.507483
1.42972 769.112 0.508748
0.554763 791.409 0.510005
current vp 0
1.50564 0 0.467429
1.50268 29.1305 0.468915
1.49975 57.9943 0.470394
1.49685 86.5943 0.471866
1.49398 114.934 0.473331
1.49115 143.015 0.474788
1.48835 170.841 0.476238
1.48558 198.416 0.477681
1.48284 225.741 0.479116
1.48013 252.819 0.480543
1.47745 279.653 0.481963
1.4748 306.247 0.483376
1.47218 332.602 0.48478
1.46959 358.721 0.486178
1.46703 384.607 0.487567
1.4645 410.262 0.488949
1.46199 435.69 0.490324
1.45952 460.892 0.49169
1.45707 485.871 0.493049
1.45464 510.63 0.4944
1.45225 535.171 0.495744
1.44988 559.496 0.497079
1.44754 583.608 0.498407
1.44522 607.51 0.499727
1.44293 631.203 0.501039
1.44067 654.689 0.502344
1.43843 677.972 0.50364
1.43622 701.054 0.504929
1.43403 723.936 0.50621
1.43186 746.621 0.507483
1.42972 769.112 0.508748
0.554763 791.409 0.510005
current vp 0
1.50564 0 0.467429
1.50268 29.1305 0.468915
1.49975 57.9943 0.470394
1.49685 86.5943 0.471866
1.49398 114.934 0.473331
1.49115 143.015 0.474788
1.48835 170.841 0.476238
1.48558 198.416 0.477681
1.48284 225.741 0.479116
1.48013 252.819 0.480543
1.47745 279.653 0.481963
1.4748 306.247 0.483376
1.47218 332.602 0.48478
1.46959 358.721 0.486178
1.46703 384.607 0.487567
1.4645 410.262 0.488949
1.46199 435.69 0.490324
1.45952 460.892 0.49169
1.45707 485.871 0.493049
1.45464 510.63 0.4944
1.45225 535.171 0.495744
1.44988 559.496 0.497079
1.44754 583.608 0.498407
1.44522 607.51 0.499727
1.44293 631.203 0.501039
1.44067 654.689 0.502344
1.43843 677.972 0.50364
1.43622 701.054 0.504929
1.43403 723.936 0.50621
1.43186 746.621 0.507483
1.42972 769.112 0.508748
0.554763 791.409 0.510005
current vp 0
1.50564 0 0.467429
1.50268 29.1305 0.468915
1.49975 57.9943 0.470394
1.49685 86.5943 0.471866
1.49398 114.934 0.473331
1.49115 143.015 0.474788
1.48835 170.841 0.476238
1.48558 198.416 0.477681
1.48284 225.741 0.479116
1.48013 252.819 0.480543
1.47745 279.653 0.481963
1.4748 306.247 0.483376
1.47218 332.602 0.48478
1.46959 358.721 0.486178
1.46703 384.607 0.487567
1.4645 410.262 0.488949
1.46199 435.69 0.490324
1.45952 460.892 0.49169
1.45707 485.871 0.493049
1.45464 510.63 0.4944
1.45225 535.171 0.495744
1.44988 559.496 0.497079
1.44754 583.608 0.498407
1.44522 607.51 0.499727
1.44293 631.203 0.501039
1.44067 654.689 0.502344
1.43843 677.972 0.50364
1.43622 701.054 0.504929
1.43403 723.936 0.50621
1.43186 746.621 0.507483
1.42972 769.112 0.508748
0.554763 791.409 0.510005
current vp 0
1.50564 0 0.467429
1.50268 29.1305 0.468915
1.49975 57.9943 0.470394
1.49685 86.5943 0.471866
1.49398 114.934 0.473331
1.49115 143.015 0.474788
1.48835 170.841 0.476238
1.48558 198.416 0.477681
1.48284 225.741 0.479116
1.48013 252.819 0.480543
1.47745 279.653 0.481963
1.4748 306.247 0.483376
1.47218 332.602 0.48478
1.46959 358.721 0.486178
1.46703 384.607 0.487567
1.4645 410.262 0.488949
1.46199 435.69 0.490324
1.45952 460.892 0.49169
1.45707 485.871 0.493049
1.45464 510.63 0.4944
1.45225 535.171 0.495744
1.44988 559.496 0.497079
1.44754 583.608 0.498407
1.44522 607.51 0.499727
1.44293 631.203 0.501039
1.44067 654.689 0.502344
1.43843 677.972 0.50364
1.43622 701.054 0.504929
1.43403 723.936 0.50621
1.43186 746.621 0.507483
1.42972 769.112 0.508748
0.554763 791.409 0.510005
current vp 19.3476
1.50367 19.3476 0.468415
1.50073 48.3009 0.469897
1.49782 76.9895 0.471371
1.49495 105.416 0.472838
1.4921 133.584 0.474298
1.48929 161.496 0.47575
1.48651 189.155 0.477195
1.48376 216.564 0.478633
1.48104 243.725 0.480063
1.47835 270.641 0.481485
1.47569 297.316 0.4829
1.47306 323.751 0.484308
1.47046 349.949 0.485708
1.46789 375.914 0.4871
1.46535 401.646 0.488484
1.46283 427.151 0.489861
1.46035 452.428 0.49123
1.45789 477.483 0.492592
1.45546 502.315 0.493946
1.45305 526.929 0.495292
1.45068 551.327 0.49663
1.44833 575.511 0.49796
1.446 599.483 0.499283
1.4437 623.246 0.500598
1.44143 646.802 0.501905
1.43918 670.153 0.503204
1.43696 693.302 0.504496
1.43476 716.252 0.505779
1.43259 739.003 0.507055
1.43044 761.559 0.508322
1.03585 783.921 0.509582
current vp 19.3476
1.50367 19.3476 0.468415
1.50073 48.3009 0.469897
1.49782 76.9895 0.471371
1.49495 105.416 0.472838
1.4921 133.584 0.474298
1.48929 161.496 0.47575
1.48651 189.155 0.477195
1.48376 216.564 0.478633
1.48104 243.725 0.480063
1.47835 270.641 0.481485
1.47569 297.316 0.4829
1.47306 323.751 0.484308
1.47046 349.949 0.485708
1.46789 375.914 0.4871
1.46535 401.646 0.488484
1.46283 427.151 0.489861
1.46035 452.428 0.49123
1.45789 477.483 0.492592
1.45546 502.315 0.493946
1.45305 526.929 0.495292
1.45068 551.327 0.49663
1.44833 575.511 0.49796
1.446 599.483 0.499283
1.4437 623.246 0.500598
1.44143 646.802 0.501905
1.43918 670.153 0.503204
1.43696 693.302 0.504496
1.43476 716.252 0.505779
1.43259 739.003 0.507055
1.43044 761.559 0.508322
1.03585 783.921 0.509582
current vp 38.6026
1.50172 38.6026 0.469399
1.4988 67.3799 0.470876
1.49591 95.8945 0.472346
1.49305 124.149 0.473808
1.49023 152.147 0.475263
1.48744 179.891 0.47671
1.48468 207.383 0.47815
1.48195 234.627 0.479583
1.47925 261.625 0.481008
1.47658 288.381 0.482425
1.47394 314.896 0.483835
1.47133 341.174 0.485238
1.46875 367.216 0.486633
1.4662 393.027 0.48802
1.46368 418.608 0.489399
1.46118 443.961 0.490771
1.45871 469.09 0.492135
1.45627 493.997 0.493491
1.45386 518.685 0.49484
1.45147 543.155 0.496181
1.44911 567.41 0.497514
1.44678 591.453 0.498839
1.44447 615.286 0.500157
1.44219 638.911 0.501466
1.43993 662.331 0.502768
1.4377 685.548 0.504062
1.4355 708.565 0.505348
1.43332 731.382 0.506627
1.43116 754.003 0.507897
1.42903 776.431 0.50916
0.0863687 798.666 0.510414
current vp 38.6026
1.50172 38.6026 0.469399
1.4988 67.3799 0.470876
1.49591 95.8945 0.472346
1.49305 124.149 0.473808
1.49023 152.147 0.475263
1.48744 179.891 0.47671
1.48468 207.383 0.47815
1.48195 234.627 0.479583
1.47925 261.625 0.481008
1.47658 288.381 0.482425
1.47394 314.896 0.483835
1.47133 341.174 0.485238
1.46875 367.216 0.486633
1.4662 393.027 0.48802
1.46368 418.608 0.489399
1.46118 443.961 0.490771
1.45871 469.09 0.492135
1.45627 493.997 0.493491
1.45386 518.685 0.49484
1.45147 543.155 0.496181
1.44911 567.41 0.497514
1.44678 591.453 0.498839
1.44447 615.286 0.500157
1.44219 638.911 0.501466
1.43993 662.331 0.502768
1.4377 685.548 0.504062
1.4355 708.565 0.505348
1.43332 731.382 0.506627
1.43116 754.003 0.507897
1.42903 776.431 0.50916
0.0863687 798.666 0.510414
current vp 57.7656
1.49977 57.7656 0.470382
1.49687 86.3679 0.471854
1.49401 114.709 0.473318
1.49118 142.793 0.474776
1.48837 170.622 0.476226
1.4856 198.198 0.477668
1.48286 225.525 0.479103
1.48015 252.605 0.480531
1.47747 279.442 0.481951
1.47482 306.038 0.483363
1.4722 332.395 0.484768
1.46961 358.516 0.486166
1.46705 384.404 0.487555
1.46452 410.061 0.488937
1.46201 435.491 0.490312
1.45954 460.695 0.491678
1.45709 485.676 0.493037
1.45467 510.437 0.494389
1.45227 534.979 0.495732
1.4499 559.307 0.497068
1.44756 583.42 0.498396
1.44524 607.324 0.499716
1.44295 631.018 0.501028
1.44069 654.507 0.502333
1.43845 677.792 0.503629
1.43623 700.875 0.504918
1.43404 723.759 0.506199
1.43188 746.446 0.507472
1.42974 768.938 0.508737
0.565854 791.237 0.509994
current vp 57.7656
1.49977 57.7656 0.470382
1.49687 86.3679 0.471854
1.49401 114.709 0.473318
1.49118 142.793 0.474776
1.48837 170.622 0.476226
1.4856 198.198 0.477668
1.48286 225.525 0.479103
1.48015 252.605 0.480531
1.47747 279.442 0.481951
1.47482 306.038 0.483363
1.4722 332.395 0.484768
1.46961 358.516 0.486166
1.46705 384.404 0.487555
1.46452 410.061 0.488937
1.46201 435.491 0.490312
1.45954 460.695 0.491678
1.45709 485.676 0.493037
1.45467 510.437 0.494389
1.45227 534.979 0.495732
1.4499 559.307 0.497068
1.44756 583.42 0.498396
1.44524 607.324 0.499716
1.44295 631.018 0.501028
1.44069 654.507 0.502333
1.43845 677.792 0.503629
1.43623 700.875 0.504918
1.43404 723.759 0.506199
1.43188 746.446 0.507472
1.42974 768.938 0.508737
0.565854 791.237 0.509994
current vp 76.8367
1.49784 76.8367 0.471362
1.49496 105.265 0.472829
1.49212 133.435 0.474289
1.48931 161.348 0.475741
1.48653 189.009 0.477186
1.48378 216.419 0.478624
1.48106 243.581 0.480054
1.47837 270.499 0.481477
1.47571 297.175 0.482892
1.47308 323.612 0.484299
1.47048 349.811 0.485699
1.46791 375.777 0.487091
1.46536 401.511 0.488476
1.46285 427.017 0.489853
1.46036 452.296 0.491222
1.4579 477.352 0.492584
1.45547 502.186 0.493938
1.45307 526.801 0.495284
1.45069 551.2 0.496622
1.44834 575.385 0.497952
1.44602 599.358 0.499275
1.44372 623.122 0.50059
1.44144 646.68 0.501897
1.4392 670.032 0.503196
1.43697 693.183 0.504488
1.43477 716.133 0.505771
1.4326 738.886 0.507047
1.43045 761.443 0.508315
1.0432 783.806 0.509575
current vp 76.8367
1.49784 76.8367 0.471362
1.49496 105.265 0.472829
1.49212 133.435 0.474289
1.48931 161.348 0.475741
1.48653 189.009 0.477186
1.48378 216.419 0.478624
1.48106 243.581 0.480054
1.47837 270.499 0.481477
1.47571 297.175 0.482892
1.47308 323.612 0.484299
1.47048 349.811 0.485699
1.46791 375.777 0.487091
1.46536 401.511 0.488476
1.46285 427.017 0.489853
1.46036 452.296 0.491222
1.4579 477.352 0.492584
1.45547 502.186 0.493938
1.45307 526.801 0.495284
1.45069 551.2 0.496622
1.44834 575.385 0.497952
1.44602 599.358 0.499275
1.44372 623.122 0.50059
1.44144 646.68 0.501897
1.4392 670.032 0.503196
1.43697 693.183 0.504488
1.43477 716.133 0.505771
1.4326 738.886 0.507047
1.43045 761.443 0.508315
1.0432 783.806 0.509575
current vp 95.8163
1.49592 95.8163 0.472341
1.49306 124.072 0.473803
1.49024 152.071 0.475258
1.48745 179.815 0.476705
1.48469 207.308 0.478145
1.48196 234.553 0.479578
1.47926 261.553 0.481003
1.47659 288.309 0.482421
1.47395 314.825 0.483831
1.47134 341.103 0.485233
1.46876 367.147 0.486628
1.46621 392.958 0.488015
1.46368 418.54 0.489394
1.46119 443.894 0.490766
1.45872 469.024 0.49213
1.45628 493.931 0.493487
1.45387 518.62 0.494835
1.45148 543.09 0.496176
1.44912 567.346 0.497509
1.44679 591.39 0.498835
1.44448 615.224 0.500152
1.4422 638.85 0.501462
1.43994 662.271 0.502764
1.43771 685.488 0.504058
1.43551 708.505 0.505344
1.43332 731.323 0.506622
1.43117 753.945 0.507893
1.42903 776.373 0.509155
0.0900339 798.609 0.51041
current vp 95.8163
1.49592 95.8163 0.472341
1.49306 124.072 0.473803
1.49024 152.071 0.475258
1.48745 179.815 0.476705
1.48469 207.308 0.478145
1.48196 234.553 0.479578
1.47926 261.553 0.481003
1.47659 288.309 0.482421
1.47395 314.825 0.483831
1.47134 341.103 0.485233
1.46876 367.147 0.486628
1.46621 392.958 0.488015
1.46368 418.54 0.489394
1.46119 443.894 0.490766
1.45872 469.024 0.49213
1.45628 493.931 0.493487
1.45387 518.62 0.494835
1.45148 543.09 0.496176
1.44912 567.346 0.497509
1.44679 591.39 0.498835
1.44448 615.224 0.500152
1.4422 638.85 0.501462
1.43994 662.271 0.502764
1.43771 685.488 0.504058
1.43551 708.505 0.505344
1.43332 731.323 0.506622
1.43117 753.945 0.507893
1.42903 776.373 0.509155
0.0900339 798.609 0.51041
current vp 114.705
1.49401 114.705 0.473317
1.49118 142.789 0.474774
1.48838 170.617 0.476224
1.4856 198.194 0.477667
1.48286 225.521 0.479102
1.48016 252.602 0.48053
1.47748 279.439 0.48195
1.47483 306.034 0.483362
1.47221 332.392 0.484767
1.46962 358.513 0.486164
1.46705 384.401 0.487554
1.46452 410.059 0.488936
1.46202 435.489 0.490311
1.45954 460.693 0.491677
1.45709 485.674 0.493036
1.45467 510.435 0.494388
1.45227 534.978 0.495731
1.4499 559.305 0.497067
1.44756 583.419 0.498395
1.44525 607.323 0.499715
1.44296 631.018 0.501027
1.44069 654.506 0.502331
1.43845 677.791 0.503628
1.43624 700.875 0.504917
1.43405 723.759 0.506198
1.43188 746.446 0.507471
1.42974 768.938 0.508736
0.565818 791.237 0.509993
current vp 114.705
1.49401 114.705 0.473317
1.49118 142.789 0.474774
1.48838 170.617 0.476224
1.4856 198.194 0.477667
1.48286 225.521 0.479102
1.48016 252.602 0.48053
1.47748 279.439 0.48195
1.47483 306.034 0.483362
1.47221 332.392 0.484767
1.46962 358.513 0.486164
1.46705 384.401 0.487554
1.46452 410.059 0.488936
1.46202 435.489 0.490311
1.45954 460.693 0.491677
1.45709 485.674 0.493036
1.45467 510.435 0.494388
1.45227 534.978 0.495731
1.4499 559.305 0.497067
1.44756 583.419 0.498395
1.44525 607.323 0.499715
1.44296 631.018 0.501027
1.44069 654.506 0.502331
1.43845 677.791 0.503628
1.43624 700.875 0.504917
1.43405 723.759 0.506198
1.43188 746.446 0.507471
1.42974 768.938 0.508736
0.565818 791.237 0.509993
current vp 133.502
1.49211 133.502 0.474292
1.4893 161.415 0.475744
1.48652 189.076 0.477189
1.48377 216.485 0.478627
1.48105 243.647 0.480057
1.47836 270.565 0.481479
1.4757 297.24 0.482894
1.47307 323.676 0.484302
1.47047 349.876 0.485702
1.4679 375.841 0.487094
1.46536 401.575 0.488478
1.46284 427.08 0.489855
1.46036 452.359 0.491225
1.4579 477.414 0.492586
1.45547 502.248 0.49394
1.45306 526.863 0.495286
1.45069 551.261 0.496624
1.44834 575.446 0.497955
1.44601 599.419 0.499277
1.44371 623.183 0.500592
1.44144 646.74 0.501899
1.43919 670.092 0.503199
1.43697 693.242 0.50449
1.43477 716.192 0.505773
1.4326 738.944 0.507049
1.43045 761.501 0.508317
1.03949 783.864 0.509577
current vp 133.502
1.49211 133.502 0.474292
1.4893 161.415 0.475744
1.48652 189.076 0.477189
1.48377 216.485 0.478627
1.48105 243.647 0.480057
1.47836 270.565 0.481479
1.4757 297.24 0.482894
1.47307 323.676 0.484302
1.47047 349.876 0.485702
1.4679 375.841 0.487094
1.46536 401.575 0.488478
1.46284 427.08 0.489855
1.46036 452.359 0.491225
1.4579 477.414 0.492586
1.45547 502.248 0.49394
1.45306 526.863 0.495286
1.45069 551.261 0.496624
1.44834 575.446 0.497955
1.44601 599.419 0.499277
1.44371 623.183 0.500592
1.44144 646.74 0.501899
1.43919 670.092 0.503199
1.43697 693.242 0.50449
1.43477 716.192 0.505773
1.4326 738.944 0.507049
1.43045 761.501 0.508317
1.03949 783.864 0.509577
current vp 152.209
1.49023 152.209 0.475264
1.48744 179.953 0.476711
1.48468 207.445 0.478151
1.48195 234.689 0.479584
1.47925 261.687 0.481009
1.47658 288.442 0.482427
1.47394 314.957 0.483837
1.47133 341.235 0.485239
1.46875 367.277 0.486634
1.4662 393.088 0.488021
1.46367 418.668 0.4894
1.46118 444.022 0.490772
1.45871 469.15 0.492136
1.45627 494.057 0.493493
1.45386 518.744 0.494841
1.45147 543.214 0.496182
1.44911 567.469 0.497515
1.44678 591.512 0.49884
1.44447 615.345 0.500158
1.44219 638.97 0.501468
1.43993 662.39 0.502769
1.4377 685.607 0.504063
1.4355 708.623 0.505349
1.43331 731.44 0.506628
1.43116 754.061 0.507898
1.42902 776.488 0.509161
0.0826362 798.723 0.510415
current vp 152.209
1.49023 152.209 0.475264
1.48744 179.953 0.476711
1.48468 207.445 0.478151
1.48195 234.689 0.479584
1.47925 261.687 0.481009
1.47658 288.442 0.482427
1.47394 314.957 0.483837
1.47133 341.235 0.485239
1.46875 367.277 0.486634
1.4662 393.088 0.488021
1.46367 418.668 0.4894
1.46118 444.022 0.490772
1.45871 469.15 0.492136
1.45627 494.057 0.493493
1.45386 518.744 0.494841
1.45147 543.214 0.496182
1.44911 567.469 0.497515
1.44678 591.512 0.49884
1.44447 615.345 0.500158
1.44219 638.97 0.501468
1.43993 662.39 0.502769
1.4377 685.607 0.504063
1.4355 708.623 0.505349
1.43331 731.44 0.506628
1.43116 754.061 0.507898
1.42902 776.488 0.509161
0.0826362 798.723 0.510415
current vp 170.826
1.48836 170.826 0.476234
1.48559 198.401 0.477677
1.48285 225.727 0.479112
1.48014 252.806 0.480539
1.47746 279.641 0.481959
1.47481 306.235 0.483372
1.47219 332.591 0.484777
1.4696 358.71 0.486174
1.46704 384.597 0.487564
1.4645 410.253 0.488946
1.462 435.681 0.49032
1.45952 460.884 0.491687
1.45707 485.864 0.493046
1.45465 510.623 0.494397
1.45226 535.165 0.49574
1.44989 559.49 0.497076
1.44755 583.603 0.498404
1.44523 607.505 0.499724
1.44294 631.198 0.501036
1.44068 654.686 0.50234
1.43844 677.969 0.503637
1.43622 701.051 0.504926
1.43403 723.934 0.506206
1.43187 746.62 0.507479
1.42973 769.111 0.508745
0.554783 791.409 0.510002
current vp 170.826
1.48836 170.826 0.476234
1.48559 198.401 0.477677
1.48285 225.727 0.479112
1.48014 252.806 0.480539
1.47746 279.641 0.481959
1.47481 306.235 0.483372
1.47219 332.591 0.484777
1.4696 358.71 0.486174
1.46704 384.597 0.487564
1.4645 410.253 0.488946
1.462 435.681 0.49032
1.45952 460.884 0.491687
1.45707 485.864 0.493046
1.45465 510.623 0.494397
1.45226 535.165 0.49574
1.44989 559.49 0.497076
1.44755 583.603 0.498404
1.44523 607.505 0.499724
1.44294 631.198 0.501036
1.44068 654.686 0.50234
1.43844 677.969 0.503637
1.43622 701.051 0.504926
1.43403 723.934 0.506206
1.43187 746.62 0.507479
1.42973 769.111 0.508745
0.554783 791.409 0.510002
current vp 189.353
1.4865 189.353 0.477203
1.48375 216.761 0.47864
1.48103 243.921 0.48007
1.47834 270.836 0.481492
1.47568 297.509 0.482907
1.47305 323.943 0.484315
1.47045 350.14 0.485715
1.46788 376.103 0.487107
1.46533 401.835 0.488491
1.46282 427.338 0.489868
1.46033 452.615 0.491237
1.45788 477.667 0.492599
1.45545 502.499 0.493953
1.45304 527.112 0.495299
1.45066 551.509 0.496637
1.44831 575.691 0.497967
1.44599 599.662 0.49929
1.44369 623.424 0.500605
1.44142 646.979 0.501912
1.43917 670.33 0.503211
1.43695 693.478 0.504502
1.43475 716.426 0.505785
1.43258 739.176 0.507061
1.43043 761.731 0.508329
1.02485 784.092 0.509589
current vp 189.353
1.4865 189.353 0.477203
1.48375 216.761 0.47864
1.48103 243.921 0.48007
1.47834 270.836 0.481492
1.47568 297.509 0.482907
1.47305 323.943 0.484315
1.47045 350.14 0.485715
1.46788 376.103 0.487107
1.46533 401.835 0.488491
1.46282 427.338 0.489868
1.46033 452.615 0.491237
1.45788 477.667 0.492599
1.45545 502.499 0.493953
1.45304 527.112 0.495299
1.45066 551.509 0.496637
1.44831 575.691 0.497967
1.44599 599.662 0.49929
1.44369 623.424 0.500605
1.44142 646.979 0.501912
1.43917 670.33 0.503211
1.43695 693.478 0.504502
1.43475 716.426 0.505785
1.43258 739.176 0.507061
1.43043 761.731 0.508329
1.02485 784.092 0.509589
current vp 207.791
1.48465 207.791 0.478169
1.48192 235.032 0.479601
1.47922 262.027 0.481026
1.47655 288.779 0.482443
1.47391 315.292 0.483853
1.4713 341.566 0.485256
1.46872 367.606 0.48665
1.46617 393.413 0.488037
1.46364 418.991 0.489417
1.46115 444.342 0.490788
1.45868 469.468 0.492152
1.45624 494.372 0.493509
1.45383 519.057 0.494857
1.45144 543.524 0.496198
1.44908 567.777 0.497531
1.44675 591.817 0.498856
1.44444 615.647 0.500174
1.44216 639.27 0.501483
1.43991 662.688 0.502785
1.43768 685.902 0.504079
1.43547 708.916 0.505365
1.43329 731.731 0.506643
1.43113 754.349 0.507913
1.429 776.774 0.509176
0.0642969 799.007 0.51043
current vp 207.791
1.48465 207.791 0.478169
1.48192 235.032 0.479601
1.47922 262.027 0.481026
1.47655 288.779 0.482443
1.47391 315.292 0.483853
1.4713 341.566 0.485256
1.46872 367.606 0.48665
